freq,psd_x,psd_y,psd_z,psd_xyz
0.0,2.474e+03,1.377e+02,3.088e+01,2.643e+03
1.7,2.911e+03,1.685e+02,8.866e+01,3.169e+03
3.3,2.519e+03,1.377e+02,1.087e+02,2.766e+03
5.0,5.248e+03,1.575e+02,1.110e+02,5.517e+03
6.7,1.002e+04,1.407e+02,9.729e+01,1.025e+04
8.4,1.418e+04,1.249e+02,9.154e+01,1.439e+04
10.0,1.945e+04,1.290e+02,8.962e+01,1.967e+04
11.7,2.582e+04,1.309e+02,8.333e+01,2.603e+04
13.4,3.311e+04,1.483e+02,9.409e+01,3.335e+04
15.0,4.136e+04,1.463e+02,9.946e+01,4.161e+04
16.7,5.053e+04,1.605e+02,9.878e+01,5.079e+04
18.4,6.050e+04,1.564e+02,9.331e+01,6.075e+04
20.0,7.207e+04,1.616e+02,9.262e+01,7.232e+04
21.7,8.469e+04,1.480e+02,9.694e+01,8.493e+04
23.4,9.799e+04,1.520e+02,9.900e+01,9.824e+04
25.1,1.120e+05,1.620e+02,1.097e+02,1.123e+05
26.7,1.259e+05,1.493e+02,1.117e+02,1.262e+05
28.4,1.419e+05,1.641e+02,1.023e+02,1.421e+05
30.1,1.618e+05,1.981e+02,1.090e+02,1.621e+05
31.7,1.823e+05,2.394e+02,1.251e+02,1.827e+05
33.4,2.041e+05,2.774e+02,1.351e+02,2.045e+05
35.1,2.276e+05,3.819e+02,1.314e+02,2.281e+05
36.7,2.537e+05,5.365e+02,1.357e+02,2.543e+05
38.4,2.802e+05,8.699e+02,1.558e+02,2.813e+05
40.1,3.123e+05,1.108e+03,1.815e+02,3.136e+05
41.8,3.521e+05,1.063e+03,2.062e+02,3.533e+05
43.4,3.947e+05,1.514e+03,2.156e+02,3.965e+05
45.1,4.427e+05,2.699e+03,2.299e+02,4.457e+05
46.8,4.939e+05,3.790e+03,2.099e+02,4.979e+05
48.4,5.533e+05,4.145e+03,2.193e+02,5.577e+05
50.1,6.286e+05,2.577e+03,3.104e+02,6.315e+05
51.8,7.097e+05,1.074e+03,4.582e+02,7.112e+05
53.4,7.900e+05,2.343e+03,6.268e+02,7.930e+05
55.1,8.763e+05,7.736e+03,7.590e+02,8.848e+05
56.8,9.774e+05,2.020e+04,7.781e+02,9.984e+05
58.5,1.092e+06,3.717e+04,7.190e+02,1.129e+06
60.1,1.216e+06,5.078e+04,5.602e+02,1.267e+06
61.8,1.358e+06,6.731e+04,3.289e+02,1.426e+06
63.5,1.514e+06,9.738e+04,1.832e+02,1.612e+06
65.1,1.698e+06,1.368e+05,4.473e+02,1.836e+06
66.8,1.952e+06,1.732e+05,2.018e+03,2.127e+06
68.5,2.299e+06,2.882e+05,6.308e+03,2.593e+06
70.1,2.727e+06,5.015e+05,1.235e+04,3.241e+06
71.8,3.207e+06,7.002e+05,1.673e+04,3.924e+06
73.5,3.665e+06,7.839e+05,1.786e+04,4.467e+06
75.2,4.133e+06,6.990e+05,1.895e+04,4.851e+06
76.8,4.648e+06,4.886e+05,2.839e+04,5.165e+06
78.5,5.244e+06,2.533e+05,4.620e+04,5.543e+06
80.2,5.804e+06,1.180e+05,6.144e+04,5.983e+06
81.8,6.212e+06,5.367e+04,7.492e+04,6.341e+06
83.5,6.425e+06,3.666e+04,8.541e+04,6.547e+06
85.2,6.278e+06,7.083e+04,9.952e+04,6.449e+06
86.9,5.688e+06,1.293e+05,1.151e+05,5.933e+06
88.5,4.801e+06,1.795e+05,1.244e+05,5.105e+06
90.2,3.834e+06,1.887e+05,1.195e+05,4.143e+06
91.9,2.995e+06,2.261e+05,1.067e+05,3.328e+06
93.5,2.430e+06,2.492e+05,9.584e+04,2.775e+06
95.2,2.041e+06,2.483e+05,6.843e+04,2.358e+06
96.9,1.838e+06,2.878e+05,2.813e+04,2.154e+06
98.5,1.679e+06,3.004e+05,1.191e+04,1.992e+06
100.2,1.555e+06,2.794e+05,1.689e+04,1.851e+06
101.9,1.517e+06,2.086e+05,2.361e+04,1.750e+06
103.6,1.483e+06,1.274e+05,2.680e+04,1.637e+06
105.2,1.449e+06,6.726e+04,2.840e+04,1.544e+06
106.9,1.438e+06,4.183e+04,3.008e+04,1.509e+06
108.6,1.321e+06,1.642e+05,2.420e+04,1.510e+06
110.2,1.037e+06,3.353e+05,2.076e+04,1.393e+06
111.9,7.843e+05,2.213e+05,2.697e+04,1.033e+06
113.6,6.549e+05,8.087e+04,3.101e+04,7.668e+05
115.2,6.500e+05,4.917e+04,2.378e+04,7.230e+05
116.9,6.854e+05,3.091e+04,1.110e+04,7.274e+05
118.6,7.469e+05,1.580e+04,3.857e+03,7.666e+05
120.3,8.512e+05,7.760e+03,2.701e+03,8.617e+05
121.9,9.834e+05,4.183e+03,4.883e+03,9.924e+05
123.6,1.199e+06,3.302e+03,7.014e+03,1.210e+06
125.3,1.525e+06,3.117e+03,7.320e+03,1.535e+06
126.9,1.850e+06,2.566e+03,6.906e+03,1.860e+06
128.6,2.233e+06,3.031e+03,5.955e+03,2.242e+06
130.3,2.706e+06,3.743e+03,6.506e+03,2.716e+06
131.9,2.899e+06,4.383e+03,5.864e+03,2.909e+06
133.6,1.485e+06,3.968e+03,2.731e+03,1.492e+06
135.3,1.699e+05,2.594e+03,6.823e+02,1.732e+05
137.0,8.176e+04,2.731e+03,6.117e+02,8.510e+04
138.6,8.666e+04,3.127e+03,7.390e+02,9.052e+04
140.3,9.394e+04,3.309e+03,8.706e+02,9.812e+04
142.0,1.002e+05,3.645e+03,1.020e+03,1.048e+05
143.6,1.063e+05,4.887e+03,1.102e+03,1.123e+05
145.3,1.125e+05,6.441e+03,1.105e+03,1.200e+05
147.0,1.230e+05,6.391e+03,9.885e+02,1.303e+05
148.6,1.423e+05,5.867e+03,9.037e+02,1.490e+05
150.3,1.706e+05,5.404e+03,1.042e+03,1.770e+05
152.0,1.968e+05,5.762e+03,1.355e+03,2.039e+05
153.7,2.272e+05,6.612e+03,1.439e+03,2.353e+05
155.3,2.428e+05,7.296e+03,1.609e+03,2.517e+05
157.0,2.451e+05,7.716e+03,1.480e+03,2.543e+05
158.7,2.420e+05,6.857e+03,1.375e+03,2.502e+05
160.3,2.513e+05,6.332e+03,1.448e+03,2.591e+05
162.0,2.827e+05,7.358e+03,1.661e+03,2.917e+05
163.7,3.377e+05,8.868e+03,2.097e+03,3.487e+05
165.3,3.986e+05,1.012e+04,2.390e+03,4.111e+05
167.0,4.635e+05,1.207e+04,2.496e+03,4.781e+05
168.7,5.182e+05,1.385e+04,2.416e+03,5.345e+05
170.4,5.702e+05,1.574e+04,2.404e+03,5.884e+05
172.0,6.248e+05,1.985e+04,2.576e+03,6.472e+05
173.7,6.846e+05,2.217e+04,2.829e+03,7.096e+05
175.4,7.462e+05,2.300e+04,3.070e+03,7.723e+05
177.0,7.960e+05,2.245e+04,3.230e+03,8.217e+05
178.7,8.291e+05,2.436e+04,3.270e+03,8.567e+05
180.4,7.744e+05,3.436e+04,3.084e+03,8.119e+05
182.1,7.153e+05,5.181e+04,3.770e+03,7.709e+05
183.7,8.139e+05,4.657e+04,5.612e+03,8.661e+05
185.4,8.578e+05,2.053e+04,5.259e+03,8.836e+05
187.1,8.107e+05,1.305e+04,4.159e+03,8.279e+05
188.7,8.104e+05,1.439e+04,2.912e+03,8.277e+05
190.4,7.873e+05,1.897e+04,2.356e+03,8.086e+05
192.1,7.471e+05,2.083e+04,2.149e+03,7.701e+05
193.7,7.044e+05,2.255e+04,2.270e+03,7.292e+05
195.4,6.540e+05,2.301e+04,2.438e+03,6.794e+05
197.1,5.869e+05,2.212e+04,2.333e+03,6.114e+05
198.8,5.249e+05,1.700e+04,2.360e+03,5.442e+05
