freq,psd_x,psd_y,psd_z,psd_xyz
0.0,3.339e+02,9.447e+02,6.524e+01,1.344e+03
1.6,4.007e+02,7.048e+02,2.913e+02,1.397e+03
3.2,3.024e+02,2.650e+02,3.149e+02,8.823e+02
4.8,2.908e+02,9.838e+02,3.042e+02,1.579e+03
6.4,2.631e+02,2.509e+03,3.343e+02,3.106e+03
8.0,2.881e+02,3.737e+03,3.417e+02,4.367e+03
9.6,2.930e+02,5.171e+03,3.615e+02,5.826e+03
11.2,2.932e+02,6.759e+03,3.757e+02,7.427e+03
12.8,2.975e+02,8.598e+03,3.902e+02,9.286e+03
14.4,3.138e+02,1.089e+04,3.789e+02,1.159e+04
16.0,3.439e+02,1.382e+04,3.826e+02,1.455e+04
17.6,3.376e+02,1.729e+04,3.940e+02,1.802e+04
19.2,3.409e+02,2.099e+04,3.668e+02,2.169e+04
20.8,3.436e+02,2.470e+04,3.880e+02,2.543e+04
22.4,3.744e+02,2.815e+04,4.059e+02,2.893e+04
24.0,4.398e+02,3.147e+04,4.139e+02,3.233e+04
25.6,5.421e+02,3.592e+04,3.839e+02,3.684e+04
27.2,6.983e+02,4.002e+04,4.067e+02,4.112e+04
28.8,9.029e+02,4.369e+04,4.293e+02,4.502e+04
30.4,1.226e+03,4.668e+04,4.280e+02,4.833e+04
32.0,1.604e+03,5.182e+04,4.079e+02,5.384e+04
33.6,1.534e+03,6.288e+04,4.631e+02,6.488e+04
35.2,1.239e+03,7.664e+04,5.073e+02,7.839e+04
36.8,1.136e+03,9.032e+04,5.001e+02,9.196e+04
38.4,1.462e+03,1.037e+05,4.799e+02,1.057e+05
40.0,2.375e+03,1.196e+05,5.029e+02,1.224e+05
41.6,4.489e+03,1.417e+05,5.503e+02,1.467e+05
43.2,8.020e+03,1.709e+05,6.083e+02,1.795e+05
44.8,1.180e+04,1.987e+05,6.858e+02,2.112e+05
46.4,1.525e+04,2.140e+05,8.025e+02,2.300e+05
48.0,2.133e+04,2.349e+05,9.045e+02,2.571e+05
49.6,3.197e+04,2.823e+05,1.290e+03,3.155e+05
51.2,4.314e+04,3.595e+05,1.573e+03,4.042e+05
52.8,5.963e+04,4.558e+05,2.052e+03,5.174e+05
54.4,9.692e+04,5.598e+05,3.762e+03,6.605e+05
56.0,1.644e+05,6.415e+05,8.750e+03,8.147e+05
57.6,2.575e+05,6.605e+05,1.698e+04,9.350e+05
59.2,3.689e+05,6.297e+05,2.160e+04,1.020e+06
60.8,5.007e+05,6.056e+05,2.089e+04,1.127e+06
62.4,6.183e+05,6.031e+05,1.887e+04,1.240e+06
64.0,7.072e+05,6.242e+05,1.816e+04,1.350e+06
65.6,7.688e+05,6.732e+05,1.700e+04,1.459e+06
67.2,7.851e+05,7.374e+05,1.637e+04,1.539e+06
68.8,7.820e+05,8.232e+05,1.470e+04,1.620e+06
70.4,7.722e+05,9.144e+05,1.187e+04,1.698e+06
72.0,7.953e+05,1.041e+06,1.013e+04,1.847e+06
73.6,8.504e+05,1.247e+06,9.719e+03,2.108e+06
75.2,9.324e+05,1.558e+06,1.026e+04,2.501e+06
76.8,1.016e+06,1.940e+06,1.108e+04,2.967e+06
78.4,1.138e+06,2.530e+06,1.154e+04,3.680e+06
80.0,1.271e+06,3.297e+06,1.227e+04,4.580e+06
81.6,1.247e+06,3.771e+06,1.060e+04,5.029e+06
83.2,1.114e+06,3.902e+06,7.625e+03,5.024e+06
84.8,9.251e+05,3.685e+06,4.787e+03,4.615e+06
86.4,7.389e+05,3.290e+06,4.076e+03,4.033e+06
88.0,5.732e+05,2.822e+06,5.773e+03,3.401e+06
89.6,4.498e+05,2.422e+06,9.704e+03,2.881e+06
91.2,3.597e+05,2.067e+06,1.298e+04,2.440e+06
92.8,2.780e+05,1.704e+06,1.592e+04,1.998e+06
94.4,2.155e+05,1.463e+06,1.939e+04,1.698e+06
96.0,1.705e+05,1.276e+06,2.157e+04,1.468e+06
97.6,1.330e+05,1.059e+06,2.116e+04,1.213e+06
99.2,1.009e+05,8.420e+05,1.998e+04,9.629e+05
100.8,7.025e+04,6.186e+05,1.838e+04,7.072e+05
102.4,4.732e+04,3.859e+05,1.693e+04,4.501e+05
104.0,3.888e+04,2.557e+05,1.754e+04,3.121e+05
105.6,4.829e+04,3.019e+05,2.107e+04,3.713e+05
107.2,9.831e+04,7.248e+05,2.505e+04,8.482e+05
108.8,1.133e+05,1.025e+06,3.084e+04,1.169e+06
110.4,6.911e+04,8.655e+05,3.132e+04,9.659e+05
112.0,3.837e+04,6.848e+05,2.815e+04,7.513e+05
113.6,2.438e+04,5.445e+05,2.556e+04,5.944e+05
115.2,1.878e+04,4.723e+05,2.295e+04,5.140e+05
116.8,1.634e+04,4.289e+05,2.189e+04,4.671e+05
118.4,1.423e+04,3.829e+05,2.148e+04,4.186e+05
120.0,1.216e+04,3.410e+05,2.089e+04,3.740e+05
121.6,9.862e+03,3.130e+05,2.002e+04,3.429e+05
123.2,7.960e+03,2.878e+05,1.830e+04,3.141e+05
124.8,7.373e+03,2.597e+05,1.583e+04,2.829e+05
126.4,8.433e+03,2.370e+05,1.300e+04,2.584e+05
128.0,9.778e+03,2.241e+05,1.120e+04,2.451e+05
129.6,6.720e+03,1.399e+05,8.485e+03,1.551e+05
131.2,2.015e+03,2.524e+04,5.666e+03,3.292e+04
132.8,1.314e+03,9.574e+03,5.364e+03,1.625e+04
134.4,1.113e+03,8.449e+03,5.502e+03,1.506e+04
136.0,9.217e+02,7.171e+03,5.865e+03,1.396e+04
137.6,8.743e+02,6.331e+03,6.123e+03,1.333e+04
139.2,7.771e+02,5.524e+03,6.035e+03,1.234e+04
140.8,8.046e+02,5.173e+03,5.723e+03,1.170e+04
142.4,7.886e+02,4.870e+03,4.971e+03,1.063e+04
144.0,7.136e+02,4.427e+03,4.243e+03,9.383e+03
145.6,7.139e+02,4.081e+03,4.205e+03,9.000e+03
147.2,7.565e+02,3.948e+03,4.132e+03,8.836e+03
148.8,8.056e+02,3.710e+03,4.530e+03,9.045e+03
150.4,8.353e+02,3.486e+03,5.360e+03,9.681e+03
152.0,7.509e+02,3.305e+03,6.661e+03,1.072e+04
153.6,8.128e+02,3.211e+03,6.649e+03,1.067e+04
155.2,8.285e+02,3.375e+03,6.723e+03,1.093e+04
156.8,7.556e+02,3.152e+03,7.242e+03,1.115e+04
158.4,7.211e+02,3.044e+03,7.131e+03,1.090e+04
160.0,7.016e+02,3.225e+03,6.883e+03,1.081e+04
161.6,7.392e+02,3.386e+03,6.294e+03,1.042e+04
163.2,7.390e+02,3.617e+03,5.382e+03,9.737e+03
164.8,7.406e+02,4.008e+03,4.783e+03,9.531e+03
166.4,7.292e+02,4.207e+03,4.470e+03,9.406e+03
168.0,6.573e+02,4.516e+03,4.201e+03,9.374e+03
169.6,6.710e+02,4.827e+03,3.927e+03,9.425e+03
171.2,6.976e+02,4.673e+03,3.598e+03,8.969e+03
172.8,7.263e+02,4.348e+03,3.186e+03,8.260e+03
174.4,7.824e+02,4.107e+03,3.256e+03,8.146e+03
176.0,8.287e+02,3.624e+03,4.523e+03,8.976e+03
177.6,9.149e+02,3.758e+03,5.031e+03,9.704e+03
179.2,8.660e+02,3.323e+03,4.389e+03,8.578e+03
180.8,6.700e+02,2.040e+03,4.477e+03,7.187e+03
182.4,5.552e+02,1.507e+03,4.805e+03,6.867e+03
184.0,4.836e+02,1.306e+03,5.648e+03,7.438e+03
185.6,4.553e+02,1.387e+03,7.339e+03,9.181e+03
187.2,3.946e+02,1.642e+03,1.254e+04,1.458e+04
188.8,3.553e+02,2.217e+03,1.729e+04,1.987e+04
190.4,4.130e+02,3.067e+03,1.274e+04,1.622e+04
192.0,4.590e+02,3.739e+03,9.794e+03,1.399e+04
193.6,4.718e+02,4.573e+03,1.013e+04,1.517e+04
195.2,5.316e+02,6.216e+03,1.029e+04,1.704e+04
196.8,5.941e+02,7.829e+03,1.127e+04,1.970e+04
198.4,6.186e+02,8.571e+03,1.240e+04,2.159e+04
200.0,6.196e+02,9.383e+03,1.336e+04,2.336e+04
