freq,psd_x,psd_y,psd_z,psd_xyz
0.0,4.248e+02,1.176e+03,8.351e+01,1.684e+03
1.6,4.471e+02,8.187e+02,3.350e+02,1.601e+03
3.2,2.697e+02,2.959e+02,4.025e+02,9.682e+02
4.8,2.827e+02,9.117e+02,4.008e+02,1.595e+03
6.4,3.012e+02,2.631e+03,4.207e+02,3.353e+03
8.0,3.068e+02,4.153e+03,4.007e+02,4.861e+03
9.6,3.092e+02,5.683e+03,3.931e+02,6.385e+03
11.2,3.186e+02,7.334e+03,3.933e+02,8.046e+03
12.8,3.388e+02,9.310e+03,3.985e+02,1.005e+04
14.4,3.355e+02,1.182e+04,4.125e+02,1.257e+04
16.0,3.235e+02,1.493e+04,4.040e+02,1.565e+04
17.6,3.411e+02,1.866e+04,3.711e+02,1.937e+04
19.2,3.391e+02,2.292e+04,3.590e+02,2.361e+04
20.8,3.401e+02,2.658e+04,3.678e+02,2.729e+04
22.4,3.987e+02,3.054e+04,3.585e+02,3.130e+04
24.0,4.512e+02,3.548e+04,3.769e+02,3.630e+04
25.6,5.488e+02,4.067e+04,4.104e+02,4.163e+04
27.2,7.310e+02,4.614e+04,4.377e+02,4.731e+04
28.8,9.416e+02,5.047e+04,4.703e+02,5.189e+04
30.4,1.275e+03,5.382e+04,5.530e+02,5.565e+04
32.0,1.462e+03,5.976e+04,6.244e+02,6.184e+04
33.6,1.339e+03,7.240e+04,7.386e+02,7.447e+04
35.2,1.059e+03,8.910e+04,8.187e+02,9.097e+04
36.8,1.178e+03,1.064e+05,8.426e+02,1.084e+05
38.4,1.790e+03,1.254e+05,8.624e+02,1.280e+05
40.0,2.888e+03,1.495e+05,9.442e+02,1.533e+05
41.6,5.009e+03,1.814e+05,1.080e+03,1.875e+05
43.2,8.245e+03,2.173e+05,1.239e+03,2.268e+05
44.8,1.209e+04,2.445e+05,1.374e+03,2.580e+05
46.4,1.626e+04,2.587e+05,1.581e+03,2.765e+05
48.0,2.312e+04,2.888e+05,1.884e+03,3.138e+05
49.6,3.299e+04,3.584e+05,2.428e+03,3.938e+05
51.2,4.572e+04,4.711e+05,3.136e+03,5.200e+05
52.8,7.075e+04,6.225e+05,3.917e+03,6.971e+05
54.4,1.236e+05,7.860e+05,5.417e+03,9.150e+05
56.0,2.082e+05,9.059e+05,8.403e+03,1.123e+06
57.6,3.181e+05,9.289e+05,1.250e+04,1.259e+06
59.2,4.503e+05,8.587e+05,1.554e+04,1.325e+06
60.8,5.868e+05,7.650e+05,1.676e+04,1.369e+06
62.4,6.893e+05,7.040e+05,1.672e+04,1.410e+06
64.0,7.599e+05,6.930e+05,1.679e+04,1.470e+06
65.6,8.181e+05,7.363e+05,1.687e+04,1.571e+06
67.2,8.516e+05,8.198e+05,1.750e+04,1.689e+06
68.8,8.509e+05,9.221e+05,1.851e+04,1.791e+06
70.4,8.400e+05,1.026e+06,1.994e+04,1.886e+06
72.0,8.815e+05,1.187e+06,2.171e+04,2.090e+06
73.6,9.793e+05,1.466e+06,2.364e+04,2.469e+06
75.2,1.106e+06,1.901e+06,2.727e+04,3.035e+06
76.8,1.242e+06,2.500e+06,3.200e+04,3.775e+06
78.4,1.392e+06,3.307e+06,3.923e+04,4.739e+06
80.0,1.501e+06,4.162e+06,4.502e+04,5.708e+06
81.6,1.545e+06,4.939e+06,4.682e+04,6.531e+06
83.2,1.466e+06,5.362e+06,4.220e+04,6.871e+06
84.8,1.243e+06,5.220e+06,2.930e+04,6.492e+06
86.4,9.524e+05,4.563e+06,1.605e+04,5.532e+06
88.0,6.857e+05,3.673e+06,7.394e+03,4.366e+06
89.6,5.508e+05,3.185e+06,3.317e+03,3.739e+06
91.2,4.348e+05,2.664e+06,2.521e+03,3.102e+06
92.8,3.300e+05,2.172e+06,3.227e+03,2.505e+06
94.4,2.454e+05,1.809e+06,4.821e+03,2.059e+06
96.0,1.932e+05,1.557e+06,7.750e+03,1.758e+06
97.6,1.570e+05,1.334e+06,9.998e+03,1.501e+06
99.2,1.255e+05,1.131e+06,1.348e+04,1.270e+06
100.8,8.801e+04,8.984e+05,1.805e+04,1.004e+06
102.4,5.077e+04,5.727e+05,1.752e+04,6.410e+05
104.0,3.688e+04,4.354e+05,9.187e+03,4.815e+05
105.6,4.875e+04,5.666e+05,4.997e+03,6.203e+05
107.2,1.177e+05,1.253e+06,1.490e+04,1.385e+06
108.8,1.508e+05,1.696e+06,2.566e+04,1.873e+06
110.4,9.618e+04,1.409e+06,2.460e+04,1.530e+06
112.0,5.443e+04,1.141e+06,2.323e+04,1.218e+06
113.6,3.565e+04,9.639e+05,2.305e+04,1.023e+06
115.2,2.715e+04,8.380e+05,2.388e+04,8.890e+05
116.8,2.414e+04,7.529e+05,2.553e+04,8.026e+05
118.4,2.345e+04,6.868e+05,2.729e+04,7.375e+05
120.0,2.282e+04,6.398e+05,2.881e+04,6.914e+05
121.6,2.188e+04,6.055e+05,3.073e+04,6.582e+05
123.2,2.136e+04,5.752e+05,3.243e+04,6.290e+05
124.8,2.107e+04,5.363e+05,3.308e+04,5.905e+05
126.4,2.077e+04,4.981e+05,3.200e+04,5.509e+05
128.0,1.994e+04,4.672e+05,3.011e+04,5.172e+05
129.6,1.277e+04,2.845e+05,2.000e+04,3.173e+05
131.2,2.642e+03,3.660e+04,6.531e+03,4.578e+04
132.8,1.293e+03,2.984e+03,5.456e+03,9.733e+03
134.4,1.351e+03,2.762e+03,5.905e+03,1.002e+04
136.0,1.341e+03,2.991e+03,6.397e+03,1.073e+04
137.6,1.270e+03,3.467e+03,7.455e+03,1.219e+04
139.2,1.261e+03,3.795e+03,7.823e+03,1.288e+04
140.8,1.344e+03,4.261e+03,8.539e+03,1.414e+04
142.4,1.433e+03,4.969e+03,1.019e+04,1.659e+04
144.0,1.437e+03,5.921e+03,1.315e+04,2.051e+04
145.6,1.333e+03,6.468e+03,1.777e+04,2.557e+04
147.2,1.407e+03,6.645e+03,2.385e+04,3.190e+04
148.8,1.483e+03,7.152e+03,3.099e+04,3.962e+04
150.4,1.602e+03,7.664e+03,4.027e+04,4.954e+04
152.0,1.849e+03,8.032e+03,5.078e+04,6.066e+04
153.6,1.984e+03,8.922e+03,6.274e+04,7.365e+04
155.2,2.062e+03,9.242e+03,7.334e+04,8.464e+04
156.8,2.166e+03,9.251e+03,8.396e+04,9.537e+04
158.4,2.230e+03,9.840e+03,9.453e+04,1.066e+05
160.0,2.221e+03,1.130e+04,9.977e+04,1.133e+05
161.6,1.952e+03,1.077e+04,1.063e+05,1.190e+05
163.2,1.660e+03,9.680e+03,1.094e+05,1.207e+05
164.8,1.528e+03,8.737e+03,1.153e+05,1.256e+05
166.4,1.415e+03,7.791e+03,1.229e+05,1.321e+05
168.0,1.362e+03,7.367e+03,1.293e+05,1.380e+05
169.6,1.394e+03,7.267e+03,1.285e+05,1.371e+05
171.2,1.559e+03,6.840e+03,1.223e+05,1.307e+05
172.8,1.743e+03,6.475e+03,1.141e+05,1.223e+05
174.4,2.001e+03,6.975e+03,9.774e+04,1.067e+05
176.0,2.142e+03,8.824e+03,7.523e+04,8.620e+04
177.6,1.570e+03,8.287e+03,7.831e+04,8.816e+04
179.2,1.240e+03,4.346e+03,7.422e+04,7.980e+04
180.8,1.163e+03,3.916e+03,6.187e+04,6.695e+04
182.4,1.171e+03,4.270e+03,5.404e+04,5.948e+04
184.0,1.215e+03,4.675e+03,4.694e+04,5.283e+04
185.6,1.285e+03,5.199e+03,3.968e+04,4.616e+04
187.2,1.283e+03,6.553e+03,3.829e+04,4.613e+04
188.8,1.319e+03,7.375e+03,4.010e+04,4.879e+04
190.4,1.439e+03,8.181e+03,3.803e+04,4.765e+04
192.0,1.430e+03,9.195e+03,3.203e+04,4.265e+04
193.6,1.343e+03,9.822e+03,3.031e+04,4.147e+04
195.2,1.190e+03,1.016e+04,2.864e+04,3.999e+04
196.8,1.191e+03,1.105e+04,2.748e+04,3.972e+04
198.4,1.158e+03,1.147e+04,2.651e+04,3.914e+04
200.0,1.156e+03,1.180e+04,2.699e+04,3.995e+04
