freq,psd_x,psd_y,psd_z,psd_xyz
0.0,8.543e+03,2.101e+04,5.812e+02,3.013e+04
1.6,1.021e+04,1.546e+04,7.122e+02,2.638e+04
3.2,6.723e+03,3.646e+03,4.052e+02,1.077e+04
4.8,6.882e+03,3.980e+03,3.972e+02,1.126e+04
6.4,6.840e+03,4.069e+03,3.978e+02,1.131e+04
8.0,7.757e+03,4.169e+03,4.111e+02,1.234e+04
9.6,7.729e+03,2.061e+04,4.211e+02,2.876e+04
11.2,7.240e+03,6.391e+04,4.376e+02,7.159e+04
12.8,7.715e+03,9.261e+04,4.277e+02,1.008e+05
14.4,8.334e+03,1.188e+05,4.008e+02,1.276e+05
16.0,8.279e+03,1.509e+05,3.766e+02,1.595e+05
17.6,8.701e+03,1.877e+05,4.171e+02,1.968e+05
19.2,7.889e+03,2.289e+05,5.048e+02,2.373e+05
20.8,8.618e+03,2.748e+05,5.702e+02,2.840e+05
22.4,7.232e+03,3.280e+05,5.409e+02,3.358e+05
24.0,8.306e+03,3.867e+05,4.955e+02,3.955e+05
25.6,1.050e+04,4.464e+05,5.644e+02,4.575e+05
27.1,1.171e+04,5.197e+05,6.229e+02,5.320e+05
28.7,1.220e+04,6.167e+05,5.549e+02,6.295e+05
30.3,1.119e+04,7.217e+05,5.865e+02,7.335e+05
31.9,1.190e+04,8.460e+05,6.818e+02,8.586e+05
33.5,1.476e+04,9.993e+05,7.639e+02,1.015e+06
35.1,1.762e+04,1.191e+06,7.562e+02,1.209e+06
36.7,2.559e+04,1.423e+06,1.065e+03,1.449e+06
38.3,3.771e+04,1.713e+06,1.543e+03,1.752e+06
39.9,5.362e+04,1.984e+06,2.254e+03,2.040e+06
41.5,7.802e+04,2.214e+06,3.352e+03,2.295e+06
43.1,1.121e+05,2.589e+06,4.680e+03,2.706e+06
44.7,1.378e+05,3.208e+06,6.533e+03,3.353e+06
46.3,1.677e+05,4.033e+06,1.053e+04,4.211e+06
47.9,2.362e+05,5.150e+06,1.828e+04,5.404e+06
49.5,4.096e+05,6.784e+06,3.198e+04,7.225e+06
51.1,9.357e+05,9.235e+06,6.581e+04,1.024e+07
52.7,3.029e+06,1.340e+07,2.294e+05,1.666e+07
54.3,6.999e+06,1.659e+07,4.493e+05,2.404e+07
55.9,1.001e+07,1.629e+07,4.658e+05,2.677e+07
57.5,1.154e+07,1.327e+07,3.772e+05,2.519e+07
59.1,1.344e+07,1.223e+07,3.796e+05,2.605e+07
60.7,1.542e+07,1.308e+07,5.115e+05,2.901e+07
62.3,1.607e+07,1.375e+07,4.923e+05,3.031e+07
63.9,1.621e+07,1.467e+07,3.952e+05,3.127e+07
65.5,1.662e+07,1.656e+07,3.340e+05,3.351e+07
67.1,1.839e+07,2.065e+07,3.459e+05,3.939e+07
68.7,2.119e+07,2.698e+07,4.048e+05,4.857e+07
70.3,2.412e+07,3.480e+07,4.262e+05,5.935e+07
71.9,2.853e+07,4.500e+07,4.517e+05,7.398e+07
73.5,3.308e+07,5.771e+07,4.728e+05,9.126e+07
75.1,3.551e+07,7.208e+07,4.499e+05,1.080e+08
76.7,3.463e+07,8.634e+07,3.792e+05,1.213e+08
78.3,2.848e+07,9.196e+07,2.885e+05,1.207e+08
79.8,2.006e+07,8.232e+07,1.950e+05,1.026e+08
81.4,1.460e+07,6.840e+07,1.510e+05,8.315e+07
83.0,1.146e+07,5.780e+07,1.303e+05,6.940e+07
84.6,9.312e+06,5.004e+07,1.148e+05,5.947e+07
86.2,7.579e+06,4.384e+07,1.030e+05,5.152e+07
87.8,5.980e+06,3.832e+07,1.117e+05,4.441e+07
89.4,4.606e+06,3.398e+07,1.313e+05,3.872e+07
91.0,3.554e+06,3.061e+07,1.586e+05,3.432e+07
92.6,2.788e+06,2.751e+07,1.921e+05,3.049e+07
94.2,2.199e+06,2.438e+07,2.345e+05,2.682e+07
95.8,1.778e+06,2.158e+07,2.779e+05,2.364e+07
97.4,1.478e+06,1.893e+07,3.136e+05,2.072e+07
99.0,1.205e+06,1.634e+07,3.353e+05,1.788e+07
100.6,1.043e+06,1.507e+07,3.223e+05,1.643e+07
102.2,9.695e+05,1.466e+07,3.351e+05,1.596e+07
103.8,8.699e+05,1.375e+07,3.509e+05,1.497e+07
105.4,8.009e+05,1.311e+07,3.506e+05,1.426e+07
107.0,7.706e+05,1.288e+07,3.913e+05,1.404e+07
108.6,7.548e+05,1.291e+07,4.546e+05,1.412e+07
110.2,7.726e+05,1.294e+07,5.516e+05,1.426e+07
111.8,7.219e+05,1.224e+07,6.869e+05,1.365e+07
113.4,5.847e+05,1.056e+07,7.976e+05,1.195e+07
115.0,4.295e+05,8.571e+06,8.196e+05,9.820e+06
116.6,2.775e+05,6.786e+06,7.285e+05,7.792e+06
118.2,1.916e+05,5.898e+06,6.543e+05,6.744e+06
119.8,2.779e+05,7.748e+06,5.700e+05,8.596e+06
121.4,4.858e+05,1.175e+07,5.141e+05,1.275e+07
123.0,5.372e+05,1.354e+07,4.966e+05,1.457e+07
124.6,4.996e+05,1.331e+07,5.290e+05,1.434e+07
126.2,4.620e+05,1.285e+07,5.729e+05,1.388e+07
127.8,4.354e+05,1.240e+07,5.492e+05,1.338e+07
129.4,4.408e+05,1.212e+07,5.165e+05,1.308e+07
131.0,4.750e+05,1.215e+07,5.448e+05,1.317e+07
132.5,5.115e+05,1.220e+07,6.303e+05,1.334e+07
134.1,5.517e+05,1.217e+07,7.219e+05,1.345e+07
135.7,5.994e+05,1.221e+07,8.100e+05,1.362e+07
137.3,6.246e+05,1.220e+07,8.947e+05,1.372e+07
138.9,6.174e+05,1.211e+07,9.085e+05,1.364e+07
140.5,6.035e+05,1.210e+07,9.007e+05,1.360e+07
142.1,5.967e+05,1.230e+07,9.903e+05,1.389e+07
143.7,5.170e+05,1.091e+07,1.015e+06,1.244e+07
145.3,2.397e+05,3.699e+06,6.938e+05,4.633e+06
146.9,1.165e+05,3.686e+05,5.645e+05,1.050e+06
148.5,1.148e+05,3.539e+05,6.225e+05,1.091e+06
150.1,1.138e+05,3.712e+05,6.630e+05,1.148e+06
151.7,1.063e+05,3.559e+05,7.060e+05,1.168e+06
153.3,1.091e+05,3.982e+05,7.712e+05,1.278e+06
154.9,1.181e+05,4.670e+05,9.116e+05,1.497e+06
156.5,1.191e+05,5.795e+05,9.619e+05,1.661e+06
158.1,1.185e+05,8.108e+05,9.233e+05,1.853e+06
159.7,1.291e+05,1.157e+06,8.681e+05,2.154e+06
161.3,1.416e+05,1.277e+06,8.567e+05,2.275e+06
162.9,1.423e+05,1.161e+06,7.867e+05,2.090e+06
164.5,1.184e+05,8.969e+05,6.954e+05,1.711e+06
166.1,9.598e+04,6.493e+05,6.205e+05,1.366e+06
167.7,8.917e+04,4.722e+05,5.391e+05,1.100e+06
169.3,7.825e+04,3.682e+05,4.676e+05,9.140e+05
170.9,6.616e+04,3.790e+05,4.112e+05,8.563e+05
172.5,6.927e+04,4.556e+05,3.561e+05,8.809e+05
174.1,6.746e+04,5.734e+05,3.245e+05,9.654e+05
175.7,6.489e+04,6.305e+05,3.012e+05,9.966e+05
177.3,3.308e+04,3.984e+05,2.884e+05,7.199e+05
178.9,1.817e+04,2.547e+05,2.854e+05,5.582e+05
180.5,1.646e+04,1.591e+05,2.819e+05,4.575e+05
182.1,1.838e+04,1.268e+05,2.986e+05,4.437e+05
183.7,2.108e+04,1.706e+05,3.064e+05,4.981e+05
185.2,2.282e+04,2.371e+05,3.003e+05,5.603e+05
186.8,2.429e+04,3.086e+05,2.880e+05,6.209e+05
188.4,2.618e+04,3.902e+05,2.804e+05,6.967e+05
190.0,3.036e+04,5.033e+05,2.867e+05,8.203e+05
191.6,3.775e+04,6.510e+05,2.920e+05,9.808e+05
193.2,4.716e+04,8.219e+05,3.063e+05,1.175e+06
194.8,6.195e+04,1.111e+06,3.648e+05,1.537e+06
196.4,8.557e+04,1.654e+06,3.763e+05,2.116e+06
198.0,1.228e+05,2.586e+06,3.884e+05,3.097e+06
199.6,1.810e+05,3.936e+06,4.042e+05,4.521e+06
