freq,psd_x,psd_y,psd_z,psd_xyz
0.0,3.790e+03,1.019e+02,4.439e+01,3.937e+03
1.7,7.765e+03,2.280e+02,1.500e+02,8.143e+03
3.3,7.701e+03,2.125e+02,1.824e+02,8.096e+03
5.0,9.943e+03,2.174e+02,1.689e+02,1.033e+04
6.7,1.581e+04,2.521e+02,1.731e+02,1.624e+04
8.4,2.041e+04,2.705e+02,1.784e+02,2.086e+04
10.0,2.614e+04,2.428e+02,1.748e+02,2.656e+04
11.7,3.342e+04,2.478e+02,1.867e+02,3.386e+04
13.4,4.110e+04,2.583e+02,1.859e+02,4.154e+04
15.1,5.084e+04,2.594e+02,1.764e+02,5.127e+04
16.7,6.258e+04,2.621e+02,1.956e+02,6.304e+04
18.4,7.358e+04,2.680e+02,1.932e+02,7.404e+04
20.1,8.615e+04,2.778e+02,1.799e+02,8.661e+04
21.8,1.001e+05,2.852e+02,1.726e+02,1.005e+05
23.4,1.132e+05,2.871e+02,1.813e+02,1.137e+05
25.1,1.281e+05,3.095e+02,2.000e+02,1.286e+05
26.8,1.437e+05,2.866e+02,1.812e+02,1.441e+05
28.4,1.607e+05,2.857e+02,1.734e+02,1.612e+05
30.1,1.809e+05,4.695e+02,1.942e+02,1.815e+05
31.8,2.059e+05,7.335e+02,2.231e+02,2.069e+05
33.5,2.305e+05,8.945e+02,2.305e+02,2.317e+05
35.1,2.560e+05,1.074e+03,2.229e+02,2.573e+05
36.8,2.835e+05,1.292e+03,2.199e+02,2.850e+05
38.5,3.124e+05,1.617e+03,2.460e+02,3.143e+05
40.2,3.450e+05,1.654e+03,2.800e+02,3.469e+05
41.8,3.835e+05,1.659e+03,3.025e+02,3.855e+05
43.5,4.232e+05,2.090e+03,3.136e+02,4.256e+05
45.2,4.627e+05,2.312e+03,3.060e+02,4.653e+05
46.9,5.079e+05,2.104e+03,2.978e+02,5.103e+05
48.5,5.597e+05,1.931e+03,3.307e+02,5.620e+05
50.2,6.139e+05,2.192e+03,4.221e+02,6.165e+05
51.9,6.737e+05,3.019e+03,5.563e+02,6.773e+05
53.5,7.412e+05,5.814e+03,7.232e+02,7.477e+05
55.2,8.208e+05,1.243e+04,8.298e+02,8.341e+05
56.9,8.948e+05,2.155e+04,8.332e+02,9.172e+05
58.6,9.738e+05,3.006e+04,6.190e+02,1.004e+06
60.2,1.057e+06,3.543e+04,3.756e+02,1.093e+06
61.9,1.143e+06,3.760e+04,2.958e+02,1.181e+06
63.6,1.241e+06,4.111e+04,3.492e+02,1.282e+06
65.3,1.347e+06,4.931e+04,7.439e+02,1.397e+06
66.9,1.467e+06,6.428e+04,1.788e+03,1.533e+06
68.6,1.625e+06,8.098e+04,4.041e+03,1.710e+06
70.3,1.806e+06,9.219e+04,6.876e+03,1.905e+06
72.0,2.008e+06,9.516e+04,8.890e+03,2.112e+06
73.6,2.289e+06,1.020e+05,1.105e+04,2.402e+06
75.3,2.638e+06,1.237e+05,1.545e+04,2.777e+06
77.0,3.060e+06,1.340e+05,2.265e+04,3.217e+06
78.6,3.599e+06,1.008e+05,3.105e+04,3.731e+06
80.3,4.226e+06,8.090e+04,3.555e+04,4.342e+06
82.0,4.861e+06,8.169e+04,3.729e+04,4.980e+06
83.7,5.783e+06,8.535e+04,4.260e+04,5.910e+06
85.3,7.234e+06,7.775e+04,4.700e+04,7.359e+06
87.0,9.005e+06,9.411e+04,5.131e+04,9.150e+06
88.7,9.996e+06,6.327e+04,5.766e+04,1.012e+07
90.4,9.514e+06,3.846e+04,7.915e+04,9.632e+06
92.0,8.283e+06,6.831e+04,8.882e+04,8.441e+06
93.7,6.827e+06,1.146e+05,5.674e+04,6.999e+06
95.4,5.562e+06,1.470e+05,3.123e+04,5.740e+06
97.1,5.504e+06,1.628e+05,2.196e+04,5.689e+06
98.7,5.117e+06,1.583e+05,1.111e+04,5.286e+06
100.4,4.253e+06,1.601e+05,5.976e+03,4.419e+06
102.1,3.494e+06,1.565e+05,1.493e+04,3.666e+06
103.7,3.003e+06,1.451e+05,5.134e+04,3.199e+06
105.4,2.588e+06,1.312e+05,8.701e+04,2.806e+06
107.1,2.055e+06,9.684e+04,7.231e+04,2.224e+06
108.8,1.585e+06,4.805e+04,3.320e+04,1.667e+06
110.4,1.317e+06,6.711e+04,1.143e+04,1.396e+06
112.1,1.247e+06,1.783e+05,7.602e+03,1.433e+06
113.8,1.346e+06,3.404e+05,1.074e+04,1.697e+06
115.5,1.396e+06,3.078e+05,1.882e+04,1.722e+06
117.1,1.518e+06,3.250e+05,3.754e+04,1.881e+06
118.8,1.714e+06,3.622e+05,6.879e+04,2.145e+06
120.5,1.930e+06,3.485e+05,8.381e+04,2.363e+06
122.2,2.271e+06,3.185e+05,8.609e+04,2.676e+06
123.8,2.684e+06,2.733e+05,8.133e+04,3.039e+06
125.5,3.097e+06,2.145e+05,8.169e+04,3.394e+06
127.2,3.688e+06,1.810e+05,8.702e+04,3.956e+06
128.8,4.417e+06,1.755e+05,9.278e+04,4.686e+06
130.5,5.073e+06,1.778e+05,9.035e+04,5.341e+06
132.2,5.267e+06,1.680e+05,7.529e+04,5.511e+06
133.9,2.410e+06,7.352e+04,3.030e+04,2.514e+06
135.5,2.337e+05,8.472e+03,2.868e+03,2.451e+05
137.2,1.348e+05,4.599e+03,1.626e+03,1.410e+05
138.9,1.492e+05,4.938e+03,1.727e+03,1.559e+05
140.6,1.724e+05,6.144e+03,1.853e+03,1.804e+05
142.2,1.975e+05,7.305e+03,1.930e+03,2.067e+05
143.9,2.190e+05,8.356e+03,2.009e+03,2.294e+05
145.6,2.340e+05,9.118e+03,2.160e+03,2.452e+05
147.3,2.465e+05,9.430e+03,2.193e+03,2.581e+05
148.9,2.628e+05,9.688e+03,2.134e+03,2.746e+05
150.6,2.745e+05,1.008e+04,2.340e+03,2.869e+05
152.3,2.854e+05,9.147e+03,2.720e+03,2.973e+05
153.9,2.925e+05,7.612e+03,3.061e+03,3.032e+05
155.6,3.027e+05,6.382e+03,2.760e+03,3.119e+05
157.3,3.153e+05,5.227e+03,2.213e+03,3.227e+05
159.0,3.405e+05,4.680e+03,1.892e+03,3.470e+05
160.6,3.990e+05,3.851e+03,1.644e+03,4.045e+05
162.3,4.774e+05,3.274e+03,1.552e+03,4.822e+05
164.0,5.623e+05,3.356e+03,1.541e+03,5.672e+05
165.7,6.299e+05,4.726e+03,1.499e+03,6.361e+05
167.3,7.098e+05,8.100e+03,1.639e+03,7.196e+05
169.0,8.238e+05,1.309e+04,2.169e+03,8.391e+05
170.7,9.589e+05,1.762e+04,3.285e+03,9.798e+05
172.4,1.111e+06,2.127e+04,4.835e+03,1.138e+06
174.0,1.327e+06,2.294e+04,6.758e+03,1.357e+06
175.7,1.571e+06,2.751e+04,9.045e+03,1.608e+06
177.4,1.826e+06,3.308e+04,1.144e+04,1.870e+06
179.1,2.021e+06,4.014e+04,1.320e+04,2.074e+06
180.7,2.263e+06,4.788e+04,1.433e+04,2.325e+06
182.4,2.421e+06,5.284e+04,1.477e+04,2.488e+06
184.1,2.578e+06,6.074e+04,1.497e+04,2.654e+06
185.7,2.685e+06,7.241e+04,1.560e+04,2.773e+06
187.4,2.660e+06,8.386e+04,1.542e+04,2.759e+06
189.1,2.600e+06,1.407e+05,1.477e+04,2.756e+06
190.8,2.513e+06,2.935e+05,1.462e+04,2.821e+06
192.4,2.680e+06,3.791e+05,1.601e+04,3.075e+06
194.1,2.678e+06,9.431e+04,1.493e+04,2.788e+06
195.8,2.670e+06,2.087e+04,1.544e+04,2.706e+06
197.5,2.610e+06,2.125e+04,1.563e+04,2.647e+06
199.1,2.404e+06,1.697e+04,1.502e+04,2.436e+06
