freq,psd_x,psd_y,psd_z,psd_xyz
0.0,1.512e+04,5.639e+02,2.260e+02,1.591e+04
1.7,5.599e+04,2.492e+03,1.009e+03,5.949e+04
3.3,6.665e+04,2.528e+03,1.068e+03,7.024e+04
5.0,6.211e+04,2.209e+03,9.506e+02,6.527e+04
6.7,6.168e+04,2.225e+03,9.482e+02,6.485e+04
8.4,7.281e+04,2.348e+03,9.912e+02,7.615e+04
10.0,8.196e+04,2.468e+03,1.001e+03,8.542e+04
11.7,8.159e+04,2.337e+03,9.357e+02,8.487e+04
13.4,8.532e+04,2.030e+03,8.469e+02,8.820e+04
15.1,1.000e+05,2.028e+03,8.950e+02,1.029e+05
16.7,1.113e+05,2.078e+03,9.281e+02,1.143e+05
18.4,1.256e+05,2.081e+03,9.319e+02,1.286e+05
20.1,1.368e+05,2.135e+03,9.657e+02,1.399e+05
21.8,1.388e+05,2.191e+03,8.125e+02,1.418e+05
23.4,1.612e+05,2.251e+03,8.222e+02,1.643e+05
25.1,1.798e+05,2.053e+03,7.870e+02,1.826e+05
26.8,2.032e+05,2.272e+03,8.960e+02,2.064e+05
28.5,2.075e+05,2.472e+03,8.819e+02,2.109e+05
30.1,2.259e+05,2.292e+03,8.991e+02,2.291e+05
31.8,2.538e+05,2.656e+03,1.013e+03,2.574e+05
33.5,2.771e+05,2.786e+03,1.009e+03,2.809e+05
35.1,3.076e+05,2.792e+03,9.564e+02,3.114e+05
36.8,3.467e+05,3.028e+03,1.011e+03,3.508e+05
38.5,3.858e+05,3.365e+03,1.190e+03,3.904e+05
40.2,4.200e+05,2.929e+03,1.036e+03,4.240e+05
41.8,4.729e+05,2.615e+03,9.161e+02,4.764e+05
43.5,5.429e+05,2.369e+03,9.475e+02,5.462e+05
45.2,6.037e+05,2.384e+03,9.117e+02,6.070e+05
46.9,6.843e+05,2.874e+03,1.087e+03,6.883e+05
48.5,7.582e+05,3.694e+03,1.170e+03,7.631e+05
50.2,8.577e+05,5.229e+03,1.495e+03,8.644e+05
51.9,9.896e+05,4.844e+03,1.914e+03,9.964e+05
53.6,1.133e+06,3.374e+03,2.204e+03,1.139e+06
55.2,1.274e+06,3.161e+03,2.390e+03,1.279e+06
56.9,1.439e+06,6.766e+03,2.699e+03,1.449e+06
58.6,1.626e+06,1.712e+04,2.945e+03,1.646e+06
60.3,1.877e+06,2.461e+04,3.015e+03,1.905e+06
61.9,2.196e+06,2.580e+04,3.280e+03,2.225e+06
63.6,2.598e+06,2.056e+04,3.608e+03,2.622e+06
65.3,3.067e+06,1.766e+04,3.419e+03,3.088e+06
67.0,3.681e+06,4.839e+04,3.808e+03,3.733e+06
68.6,4.280e+06,9.838e+04,6.416e+03,4.385e+06
70.3,5.027e+06,1.550e+05,1.245e+04,5.194e+06
72.0,6.110e+06,2.172e+05,2.164e+04,6.349e+06
73.6,7.245e+06,2.813e+05,3.018e+04,7.557e+06
75.3,7.674e+06,2.537e+05,4.648e+04,7.974e+06
77.0,7.314e+06,1.545e+05,8.398e+04,7.552e+06
78.7,6.930e+06,7.590e+04,1.315e+05,7.138e+06
80.3,6.670e+06,5.391e+04,1.664e+05,6.890e+06
82.0,6.418e+06,1.024e+05,1.859e+05,6.706e+06
83.7,5.981e+06,1.548e+05,1.946e+05,6.330e+06
85.4,5.243e+06,1.752e+05,1.687e+05,5.587e+06
87.0,4.511e+06,1.917e+05,1.506e+05,4.854e+06
88.7,3.882e+06,1.723e+05,1.458e+05,4.200e+06
90.4,3.426e+06,1.391e+05,1.147e+05,3.680e+06
92.1,2.894e+06,1.310e+05,7.246e+04,3.097e+06
93.7,2.374e+06,1.508e+05,4.395e+04,2.569e+06
95.4,1.979e+06,1.714e+05,3.728e+04,2.187e+06
97.1,1.656e+06,1.925e+05,4.431e+04,1.893e+06
98.8,1.428e+06,2.194e+05,4.454e+04,1.692e+06
100.4,1.242e+06,1.807e+05,4.099e+04,1.464e+06
102.1,1.158e+06,1.483e+05,3.604e+04,1.342e+06
103.8,1.114e+06,1.344e+05,2.738e+04,1.276e+06
105.4,1.093e+06,1.173e+05,2.234e+04,1.233e+06
107.1,1.027e+06,1.018e+05,2.585e+04,1.154e+06
108.8,9.482e+05,8.448e+04,3.225e+04,1.065e+06
110.5,9.029e+05,5.728e+04,3.221e+04,9.924e+05
112.1,9.202e+05,3.014e+04,2.920e+04,9.795e+05
113.8,1.093e+06,3.272e+04,3.140e+04,1.157e+06
115.5,1.178e+06,2.563e+05,2.873e+04,1.463e+06
117.2,1.193e+06,8.206e+05,2.537e+04,2.039e+06
118.8,1.327e+06,9.309e+05,2.696e+04,2.285e+06
120.5,1.266e+06,4.488e+05,2.551e+04,1.740e+06
122.2,1.244e+06,1.672e+05,1.750e+04,1.429e+06
123.9,1.442e+06,9.023e+04,1.232e+04,1.545e+06
125.5,1.764e+06,7.067e+04,1.309e+04,1.847e+06
127.2,2.177e+06,5.985e+04,1.431e+04,2.251e+06
128.9,2.678e+06,5.046e+04,1.272e+04,2.741e+06
130.6,3.117e+06,4.892e+04,1.604e+04,3.182e+06
132.2,3.136e+06,4.431e+04,1.845e+04,3.199e+06
133.9,1.353e+06,2.189e+04,8.735e+03,1.383e+06
135.6,1.850e+05,9.235e+03,2.346e+03,1.965e+05
137.2,1.550e+05,8.552e+03,2.436e+03,1.660e+05
138.9,1.718e+05,8.063e+03,2.869e+03,1.827e+05
140.6,1.912e+05,7.608e+03,2.917e+03,2.017e+05
142.3,2.222e+05,8.001e+03,3.073e+03,2.332e+05
143.9,2.854e+05,8.332e+03,3.433e+03,2.972e+05
145.6,3.213e+05,9.827e+03,4.084e+03,3.352e+05
147.3,3.084e+05,1.163e+04,4.734e+03,3.248e+05
149.0,2.672e+05,1.550e+04,5.384e+03,2.881e+05
150.6,2.676e+05,2.139e+04,4.742e+03,2.937e+05
152.3,2.772e+05,2.693e+04,4.877e+03,3.090e+05
154.0,3.142e+05,2.881e+04,5.639e+03,3.486e+05
155.7,3.537e+05,2.846e+04,6.129e+03,3.883e+05
157.3,3.816e+05,2.502e+04,5.668e+03,4.123e+05
159.0,4.169e+05,2.062e+04,5.359e+03,4.429e+05
160.7,4.602e+05,1.676e+04,5.053e+03,4.820e+05
162.4,4.975e+05,1.462e+04,4.472e+03,5.165e+05
164.0,5.240e+05,1.337e+04,3.808e+03,5.412e+05
165.7,5.634e+05,1.253e+04,3.255e+03,5.792e+05
167.4,6.229e+05,1.298e+04,3.160e+03,6.390e+05
169.1,6.581e+05,1.367e+04,3.503e+03,6.753e+05
170.7,6.946e+05,1.472e+04,3.441e+03,7.128e+05
172.4,7.420e+05,1.668e+04,3.075e+03,7.617e+05
174.1,8.380e+05,1.845e+04,2.993e+03,8.594e+05
175.7,8.967e+05,1.951e+04,3.517e+03,9.198e+05
177.4,9.754e+05,2.075e+04,3.952e+03,1.000e+06
179.1,9.754e+05,2.024e+04,4.192e+03,9.999e+05
180.8,9.928e+05,1.833e+04,5.185e+03,1.016e+06
182.4,9.939e+05,1.835e+04,5.395e+03,1.018e+06
184.1,1.004e+06,1.952e+04,5.816e+03,1.029e+06
185.8,9.737e+05,2.042e+04,5.953e+03,1.000e+06
187.5,9.553e+05,1.859e+04,6.372e+03,9.803e+05
189.1,9.194e+05,1.591e+04,6.486e+03,9.418e+05
190.8,8.506e+05,1.505e+04,5.619e+03,8.713e+05
192.5,8.198e+05,1.373e+04,5.811e+03,8.393e+05
194.2,7.768e+05,1.469e+04,6.441e+03,7.980e+05
195.8,7.416e+05,1.361e+04,6.004e+03,7.613e+05
197.5,6.938e+05,1.060e+04,4.847e+03,7.093e+05
199.2,6.508e+05,1.990e+04,4.977e+03,6.757e+05
