freq,psd_x,psd_y,psd_z,psd_xyz
0.0,1.629e+03,1.457e+02,4.403e+01,1.819e+03
1.7,6.913e+03,4.615e+02,2.030e+02,7.578e+03
3.3,8.003e+03,4.538e+02,2.194e+02,8.676e+03
5.0,7.984e+03,4.607e+02,2.176e+02,8.663e+03
6.7,1.044e+04,4.867e+02,2.425e+02,1.117e+04
8.4,1.229e+04,4.978e+02,2.587e+02,1.304e+04
10.0,1.198e+04,4.577e+02,2.192e+02,1.266e+04
11.7,1.432e+04,4.526e+02,2.261e+02,1.500e+04
13.4,1.647e+04,4.593e+02,2.474e+02,1.718e+04
15.1,1.809e+04,4.696e+02,2.347e+02,1.880e+04
16.7,2.054e+04,4.831e+02,2.307e+02,2.125e+04
18.4,2.355e+04,4.770e+02,2.319e+02,2.426e+04
20.1,2.542e+04,4.551e+02,2.174e+02,2.609e+04
21.8,2.808e+04,4.767e+02,2.227e+02,2.878e+04
23.4,3.191e+04,5.160e+02,2.184e+02,3.264e+04
25.1,3.479e+04,5.524e+02,2.258e+02,3.557e+04
26.8,3.723e+04,5.098e+02,2.152e+02,3.796e+04
28.5,3.969e+04,5.747e+02,2.156e+02,4.048e+04
30.1,4.313e+04,6.259e+02,2.386e+02,4.399e+04
31.8,4.535e+04,6.900e+02,2.470e+02,4.628e+04
33.5,4.858e+04,7.923e+02,2.345e+02,4.960e+04
35.2,5.379e+04,8.635e+02,2.207e+02,5.488e+04
36.8,5.994e+04,8.705e+02,2.292e+02,6.104e+04
38.5,6.608e+04,8.430e+02,2.402e+02,6.716e+04
40.2,7.205e+04,7.534e+02,2.607e+02,7.306e+04
41.9,7.758e+04,5.859e+02,2.311e+02,7.840e+04
43.5,8.544e+04,5.671e+02,2.220e+02,8.623e+04
45.2,9.405e+04,5.230e+02,2.388e+02,9.481e+04
46.9,1.046e+05,5.689e+02,2.597e+02,1.054e+05
48.6,1.159e+05,7.842e+02,2.571e+02,1.170e+05
50.2,1.282e+05,1.170e+03,2.492e+02,1.296e+05
51.9,1.441e+05,1.672e+03,2.724e+02,1.461e+05
53.6,1.598e+05,2.028e+03,2.909e+02,1.621e+05
55.3,1.781e+05,2.247e+03,3.398e+02,1.807e+05
56.9,2.009e+05,2.431e+03,4.101e+02,2.037e+05
58.6,2.268e+05,3.019e+03,4.791e+02,2.303e+05
60.3,2.565e+05,5.352e+03,5.290e+02,2.624e+05
62.0,2.865e+05,1.206e+04,5.926e+02,2.992e+05
63.6,3.140e+05,2.267e+04,7.108e+02,3.374e+05
65.3,3.439e+05,3.340e+04,7.849e+02,3.781e+05
67.0,3.855e+05,4.765e+04,9.144e+02,4.341e+05
68.7,4.321e+05,7.237e+04,1.150e+03,5.056e+05
70.3,4.878e+05,1.293e+05,1.564e+03,6.187e+05
72.0,5.553e+05,2.695e+05,2.071e+03,8.269e+05
73.7,6.564e+05,4.716e+05,2.909e+03,1.131e+06
75.4,7.965e+05,5.184e+05,3.994e+03,1.319e+06
77.0,8.767e+05,4.085e+05,5.396e+03,1.291e+06
78.7,9.027e+05,3.202e+05,7.967e+03,1.231e+06
80.4,9.238e+05,2.462e+05,1.241e+04,1.182e+06
82.0,9.643e+05,1.719e+05,1.725e+04,1.153e+06
83.7,9.877e+05,1.498e+05,2.423e+04,1.162e+06
85.4,1.000e+06,1.562e+05,2.192e+04,1.178e+06
87.1,1.008e+06,1.575e+05,1.571e+04,1.181e+06
88.7,9.902e+05,1.560e+05,1.756e+04,1.164e+06
90.4,9.159e+05,1.484e+05,1.813e+04,1.082e+06
92.1,8.536e+05,1.393e+05,1.592e+04,1.009e+06
93.8,7.965e+05,1.472e+05,1.229e+04,9.559e+05
95.4,7.113e+05,1.468e+05,9.952e+03,8.681e+05
97.1,6.391e+05,1.549e+05,9.958e+03,8.039e+05
98.8,5.636e+05,1.958e+05,9.940e+03,7.694e+05
100.5,4.941e+05,2.068e+05,1.120e+04,7.121e+05
102.1,4.373e+05,1.687e+05,1.318e+04,6.192e+05
103.8,3.902e+05,1.293e+05,1.133e+04,5.308e+05
105.5,3.479e+05,1.148e+05,8.976e+03,4.717e+05
107.2,3.077e+05,9.872e+04,7.717e+03,4.141e+05
108.8,2.523e+05,7.183e+04,6.844e+03,3.310e+05
110.5,1.996e+05,4.843e+04,6.581e+03,2.546e+05
112.2,1.595e+05,2.818e+04,5.640e+03,1.933e+05
113.9,1.330e+05,1.217e+04,4.981e+03,1.501e+05
115.5,1.242e+05,7.694e+03,5.726e+03,1.376e+05
117.2,1.182e+05,3.602e+04,7.403e+03,1.616e+05
118.9,1.323e+05,1.073e+05,1.062e+04,2.503e+05
120.6,1.584e+05,1.326e+05,1.364e+04,3.047e+05
122.2,2.055e+05,1.297e+05,1.226e+04,3.475e+05
123.9,2.732e+05,1.375e+05,8.716e+03,4.194e+05
125.6,3.296e+05,1.443e+05,5.955e+03,4.799e+05
127.3,4.014e+05,1.576e+05,4.745e+03,5.637e+05
128.9,5.035e+05,1.728e+05,3.111e+03,6.794e+05
130.6,5.743e+05,1.693e+05,2.377e+03,7.460e+05
132.3,5.664e+05,1.409e+05,3.615e+03,7.109e+05
134.0,2.820e+05,6.095e+04,2.433e+03,3.453e+05
135.6,3.475e+04,4.707e+03,4.857e+02,3.995e+04
137.3,2.016e+04,1.313e+03,3.469e+02,2.182e+04
139.0,2.203e+04,1.266e+03,3.613e+02,2.366e+04
140.7,2.482e+04,1.149e+03,3.340e+02,2.630e+04
142.3,2.884e+04,1.078e+03,3.012e+02,3.022e+04
144.0,3.569e+04,1.025e+03,2.956e+02,3.701e+04
145.7,4.163e+04,1.074e+03,3.153e+02,4.302e+04
147.4,4.564e+04,9.550e+02,3.966e+02,4.699e+04
149.0,4.717e+04,9.493e+02,5.707e+02,4.869e+04
150.7,4.769e+04,1.278e+03,7.471e+02,4.971e+04
152.4,4.427e+04,1.342e+03,7.921e+02,4.641e+04
154.1,4.215e+04,1.077e+03,8.217e+02,4.405e+04
155.7,4.337e+04,1.286e+03,8.498e+02,4.551e+04
157.4,4.867e+04,1.864e+03,8.403e+02,5.137e+04
159.1,5.111e+04,1.959e+03,7.851e+02,5.386e+04
160.7,5.460e+04,1.966e+03,6.713e+02,5.723e+04
162.4,6.487e+04,1.541e+03,6.085e+02,6.702e+04
164.1,7.373e+04,1.364e+03,4.888e+02,7.558e+04
165.8,7.364e+04,1.300e+03,3.871e+02,7.533e+04
167.4,8.182e+04,1.167e+03,3.695e+02,8.336e+04
169.1,9.257e+04,1.034e+03,3.955e+02,9.400e+04
170.8,9.451e+04,9.643e+02,4.699e+02,9.595e+04
172.5,9.379e+04,1.106e+03,4.576e+02,9.536e+04
174.1,9.991e+04,1.651e+03,4.443e+02,1.020e+05
175.8,1.177e+05,1.984e+03,4.617e+02,1.201e+05
177.5,1.251e+05,2.271e+03,4.603e+02,1.278e+05
179.2,1.206e+05,2.360e+03,5.469e+02,1.235e+05
180.8,1.160e+05,3.037e+03,7.581e+02,1.198e+05
182.5,1.243e+05,3.581e+03,1.056e+03,1.290e+05
184.2,1.248e+05,3.742e+03,1.302e+03,1.298e+05
185.9,1.172e+05,3.620e+03,1.336e+03,1.222e+05
187.5,1.120e+05,3.728e+03,1.300e+03,1.170e+05
189.2,1.122e+05,3.991e+03,1.214e+03,1.174e+05
190.9,1.118e+05,4.361e+03,1.087e+03,1.172e+05
192.6,1.054e+05,5.432e+03,1.335e+03,1.122e+05
194.2,1.033e+05,5.233e+03,1.612e+03,1.101e+05
195.9,9.682e+04,5.760e+03,1.369e+03,1.040e+05
197.6,9.278e+04,8.885e+03,1.431e+03,1.031e+05
199.3,9.017e+04,6.028e+03,1.562e+03,9.776e+04
